Song Name	Saramandra (Hard) by Yooh & Harunaba
Difficulty	29
Primary Color	Flow
Secondary Color	Flow
Audio Asset ID	rbxassetid://118386936653503
Audio File	118386936653503.ogg
Last Note Time	109.705
Total Notes	1737
Fever Fill	389
Fever Time	16.455750
Long Notes	570
BPM	128
Song Length	110.705000000

Timing Points
0.955	468.750000


Song Data
0.955	1	4	2
1.306	2	4	3
0.955	3	3	2
1.306	4	3	3
0.955	5	1	1
1.189	6	2	1
1.306	7	2	1
1.423	8	4	1
1.423	9	1	1
1.540	10	2	2
1.775	11	2	3
1.775	12	1	2
2.009	13	1	3
1.892	14	3	1
1.892	15	4	1
2.009	16	2	1
2.126	17	1	1
2.244	18	1	1
2.361	19	4	1
2.361	20	2	1
2.478	21	1	2
2.712	22	1	3
2.712	23	2	2
2.947	24	2	3
2.830	25	4	1
2.830	26	3	1
2.947	27	1	1
3.064	28	2	1
3.181	29	2	1
3.298	30	4	1
3.298	31	1	1
3.415	32	2	2
3.650	33	2	3
3.650	34	1	2
3.884	35	1	3
3.767	36	3	1
3.767	37	4	1
3.884	38	2	1
4.001	39	4	2
4.119	40	4	3
4.001	41	1	2
4.119	42	1	3
4.236	43	1	2
4.353	44	1	3
4.236	45	3	2
4.353	46	3	3
4.470	47	2	2
4.587	48	2	3
4.470	49	4	2
4.587	50	4	3
4.705	51	3	1
4.705	52	4	2
5.056	53	4	3
4.705	54	1	2
5.056	55	1	3
4.939	56	3	1
4.939	57	2	1
5.056	58	3	1
5.056	59	2	1
5.173	60	4	1
5.173	61	1	1
5.290	62	2	2
5.408	63	2	3
5.290	64	3	2
5.408	65	3	3
5.408	66	1	1
5.525	67	4	2
5.642	68	4	3
5.525	69	3	2
5.642	70	3	3
5.642	71	1	1
5.642	72	2	1
5.759	73	4	1
5.759	74	3	1
5.876	75	4	1
5.876	76	3	1
5.994	77	1	1
5.994	78	2	1
6.111	79	4	1
6.111	80	3	1
6.228	81	1	2
6.345	82	1	3
6.228	83	2	2
6.345	84	2	3
6.345	85	4	1
6.462	86	2	2
6.814	87	2	3
6.462	88	3	2
6.814	89	3	3
6.697	90	4	1
6.697	91	1	1
6.814	92	4	1
6.814	93	1	1
6.931	94	3	1
6.931	95	2	1
7.048	96	4	1
7.048	97	1	1
7.165	98	3	2
7.283	99	3	3
7.165	100	2	2
7.283	101	2	3
7.283	102	4	1
7.400	103	1	2
7.517	104	1	3
7.400	105	2	2
7.517	106	2	3
7.517	107	4	1
7.517	108	3	1
7.634	109	1	1
7.634	110	2	1
7.751	111	4	2
7.869	112	4	3
7.751	113	1	2
7.986	114	1	3
7.986	115	2	2
8.220	116	2	3
7.986	117	4	2
8.220	118	4	3
8.220	119	1	2
8.337	120	1	3
8.220	121	3	2
8.455	122	3	3
8.455	123	1	2
8.806	124	1	3
8.455	125	2	2
8.806	126	2	3
8.455	127	4	1
8.689	128	3	1
8.806	129	3	1
8.923	130	1	1
8.923	131	4	1
9.040	132	3	2
9.158	133	3	3
9.040	134	1	2
9.158	135	1	3
9.158	136	2	2
9.275	137	2	3
9.275	138	3	2
9.392	139	3	3
9.275	140	4	2
9.509	141	4	3
9.392	142	2	1
9.392	143	1	1
9.509	144	3	1
9.626	145	4	1
9.744	146	4	1
9.861	147	1	1
9.861	148	3	1
9.978	149	4	2
10.095	150	4	3
9.978	151	1	2
10.095	152	1	3
10.095	153	2	2
10.212	154	2	3
10.212	155	4	2
10.330	156	4	3
10.212	157	3	2
10.447	158	3	3
10.330	159	1	1
10.330	160	2	1
10.447	161	4	1
10.564	162	3	1
10.681	163	3	1
10.798	164	1	1
10.798	165	4	1
10.915	166	3	2
11.033	167	3	3
10.915	168	1	2
11.033	169	1	3
11.033	170	2	2
11.150	171	2	3
11.150	172	3	2
11.267	173	3	3
11.150	174	4	2
11.384	175	4	3
11.267	176	2	1
11.267	177	1	1
11.384	178	3	2
11.501	179	3	3
11.501	180	1	2
11.619	181	1	3
11.501	182	4	2
11.736	183	4	3
11.736	184	3	2
11.970	185	3	3
11.736	186	1	2
11.970	187	1	3
11.970	188	4	2
12.087	189	4	3
11.970	190	2	2
12.205	191	2	3
12.205	192	4	2
12.556	193	4	3
12.205	194	3	2
12.556	195	3	3
12.439	196	2	1
12.556	197	2	1
12.673	198	4	1
12.673	199	1	1
12.790	200	2	2
12.908	201	2	3
12.790	202	4	2
12.908	203	4	3
12.908	204	3	2
13.025	205	3	3
13.025	206	2	2
13.142	207	2	3
13.025	208	1	2
13.259	209	1	3
13.142	210	3	1
13.142	211	4	1
13.259	212	2	1
13.376	213	1	1
13.494	214	1	1
13.611	215	4	1
13.611	216	2	1
13.728	217	1	2
13.845	218	1	3
13.728	219	4	2
13.845	220	4	3
13.845	221	3	2
13.962	222	3	3
13.962	223	1	2
14.080	224	1	3
13.962	225	2	2
14.197	226	2	3
14.080	227	4	1
14.080	228	3	1
14.197	229	1	1
14.314	230	2	1
14.431	231	2	1
14.548	232	4	1
14.548	233	1	1
14.665	234	2	2
14.783	235	2	3
14.665	236	4	2
14.783	237	4	3
14.783	238	3	2
14.900	239	3	3
14.900	240	2	2
15.017	241	2	3
14.900	242	1	2
15.134	243	1	3
15.017	244	3	1
15.017	245	4	1
15.134	246	2	2
15.251	247	2	3
15.251	248	4	2
15.486	249	4	3
15.251	250	1	2
15.369	251	1	3
15.486	252	1	2
15.720	253	1	3
15.486	254	3	2
15.720	255	3	3
15.720	256	4	1
15.779	257	2	1
15.837	258	4	1
15.896	259	3	1
15.955	260	1	2
16.306	261	1	3
15.955	262	2	1
16.072	263	4	1
16.189	264	2	1
16.306	265	4	1
16.423	266	1	1
16.423	267	2	1
16.540	268	4	1
16.658	269	1	1
16.716	270	3	1
16.775	271	1	1
16.833	272	2	1
16.892	273	4	2
17.244	274	4	3
16.892	275	3	1
17.009	276	1	1
17.126	277	3	1
17.244	278	1	1
17.361	279	4	1
17.361	280	3	1
17.478	281	1	1
17.595	282	4	1
17.654	283	2	1
17.712	284	4	1
17.771	285	3	1
17.830	286	2	1
17.830	287	1	2
18.181	288	1	3
17.947	289	4	1
18.064	290	2	1
18.181	291	4	1
18.298	292	1	1
18.298	293	2	1
18.415	294	4	1
18.533	295	1	1
18.591	296	3	1
18.650	297	1	1
18.708	298	2	1
18.767	299	3	1
18.767	300	4	2
19.119	301	4	3
18.884	302	1	1
19.001	303	3	1
19.119	304	1	1
19.236	305	4	1
19.236	306	3	1
19.353	307	1	1
19.470	308	4	1
19.529	309	2	1
19.587	310	4	1
19.646	311	3	1
19.705	312	2	2
20.056	313	2	3
19.705	314	1	1
19.822	315	4	1
19.939	316	1	1
20.056	317	4	1
20.173	318	2	1
20.173	319	3	1
20.290	320	1	1
20.408	321	4	1
20.466	322	2	1
20.525	323	1	1
20.583	324	2	1
20.642	325	3	2
20.994	326	3	3
20.642	327	4	1
20.759	328	1	1
20.876	329	4	1
20.994	330	1	1
21.111	331	3	1
21.111	332	2	1
21.228	333	4	1
21.345	334	1	1
21.404	335	3	1
21.462	336	4	1
21.521	337	3	1
21.580	338	1	2
21.697	339	1	3
21.580	340	2	2
21.931	341	2	3
21.697	342	4	1
21.814	343	1	1
21.931	344	4	2
22.048	345	4	3
22.048	346	2	2
22.165	347	2	3
22.048	348	3	1
22.165	349	1	2
22.283	350	1	3
22.283	351	4	1
22.341	352	2	1
22.400	353	1	1
22.458	354	2	1
22.517	355	3	2
22.869	356	3	3
22.517	357	4	1
22.634	358	1	2
22.751	359	1	3
22.751	360	4	2
22.869	361	4	3
22.869	362	1	1
22.986	363	2	2
23.103	364	2	3
22.986	365	3	2
23.103	366	3	3
23.103	367	4	1
23.220	368	1	1
23.279	369	3	1
23.337	370	4	1
23.396	371	3	1
23.455	372	2	2
23.689	373	2	3
23.455	374	1	2
23.689	375	1	3
23.572	376	4	1
23.689	377	4	1
23.806	378	2	1
23.923	379	4	2
24.158	380	4	3
23.923	381	3	2
24.158	382	3	3
24.040	383	1	1
24.158	384	1	1
24.216	385	2	1
24.275	386	4	1
24.333	387	3	1
24.392	388	1	2
24.626	389	1	3
24.392	390	2	2
24.626	391	2	3
24.509	392	4	1
24.626	393	4	1
24.744	394	1	1
24.861	395	4	2
25.095	396	4	3
24.861	397	3	2
25.095	398	3	3
24.978	399	1	1
25.095	400	1	1
25.154	401	4	1
25.212	402	2	1
25.271	403	3	1
25.330	404	4	2
25.564	405	4	3
25.330	406	2	2
25.564	407	2	3
25.330	408	1	1
25.447	409	3	1
25.564	410	3	1
25.681	411	2	1
25.798	412	3	2
26.033	413	3	3
25.798	414	1	2
26.033	415	1	3
25.915	416	2	1
26.033	417	2	1
26.091	418	4	1
26.150	419	3	1
26.208	420	1	1
26.267	421	4	2
26.501	422	4	3
26.267	423	2	2
26.501	424	2	3
26.384	425	3	1
26.501	426	3	1
26.619	427	2	1
26.736	428	3	2
26.970	429	3	3
26.736	430	1	2
26.970	431	1	3
26.853	432	2	1
26.970	433	2	1
27.029	434	4	1
27.087	435	3	1
27.146	436	1	1
27.205	437	4	2
27.322	438	4	3
27.205	439	2	1
27.439	440	3	1
27.439	441	4	2
27.556	442	4	3
27.556	443	1	1
27.673	444	3	1
27.673	445	4	2
27.790	446	4	3
27.790	447	2	1
27.908	448	3	2
28.025	449	3	3
27.966	450	1	1
28.025	451	2	1
28.083	452	4	1
28.142	453	3	1
28.142	454	1	2
28.259	455	1	3
28.376	456	2	1
28.376	457	1	2
28.494	458	1	3
28.494	459	4	1
28.611	460	2	1
28.611	461	1	2
28.728	462	1	3
28.728	463	3	1
28.845	464	2	2
28.962	465	2	3
28.904	466	4	1
28.962	467	3	1
29.021	468	1	1
29.080	469	4	1
29.080	470	2	1
29.314	471	3	1
29.314	472	1	1
29.431	473	1	1
29.431	474	4	1
29.548	475	3	1
29.665	476	4	1
29.665	477	2	1
29.783	478	1	1
29.783	479	4	1
30.017	480	2	1
30.017	481	3	1
30.017	482	4	1
30.134	483	1	1
30.251	484	4	1
30.251	485	1	1
30.486	486	1	2
30.955	487	1	3
30.486	488	2	2
30.837	489	2	3
30.486	490	3	2
30.720	491	3	3
30.955	492	4	1
30.955	493	3	1
31.189	494	4	1
31.423	495	3	1
31.658	496	4	1
31.892	497	3	1
32.126	498	4	1
32.361	499	3	1
32.595	500	4	1
32.830	501	3	1
33.064	502	4	1
33.298	503	3	1
33.533	504	4	1
33.767	505	3	2
34.705	506	3	3
34.236	507	1	2
34.353	508	1	3
34.353	509	2	2
34.705	510	2	3
34.705	511	4	2
35.056	512	4	3
34.705	513	1	1
35.173	514	4	2
35.525	515	4	3
35.408	516	2	1
35.525	517	2	1
35.642	518	1	2
35.876	519	1	3
35.876	520	3	1
35.994	521	2	2
36.228	522	2	3
36.111	523	1	1
36.228	524	4	2
36.345	525	4	3
36.345	526	3	2
36.462	527	3	3
36.462	528	2	2
36.580	529	2	3
36.580	530	4	1
36.580	531	1	1
36.697	532	1	2
36.814	533	1	3
36.697	534	3	2
36.814	535	3	3
36.814	536	2	1
36.931	537	4	1
36.931	538	1	1
37.048	539	4	2
37.165	540	4	3
37.048	541	2	2
37.165	542	2	3
37.165	543	3	1
37.283	544	1	2
37.517	545	1	3
37.283	546	2	2
37.517	547	2	3
37.517	548	4	1
37.595	549	1	1
37.673	550	4	1
37.751	551	1	2
37.986	552	1	3
37.986	553	3	1
38.064	554	2	1
38.142	555	3	1
38.220	556	2	2
38.455	557	2	3
38.455	558	4	1
38.455	559	1	2
38.806	560	1	3
38.689	561	3	1
38.806	562	3	1
38.923	563	2	2
39.158	564	2	3
39.040	565	4	2
39.158	566	4	3
39.158	567	3	1
39.275	568	1	2
39.509	569	1	3
39.509	570	3	1
39.626	571	1	2
39.744	572	1	3
39.626	573	2	2
39.744	574	2	3
39.861	575	3	2
39.978	576	3	3
39.861	577	2	2
39.978	578	2	3
40.095	579	4	2
40.212	580	4	3
40.095	581	3	2
40.212	582	3	3
40.330	583	4	2
40.681	584	4	3
40.330	585	1	2
40.681	586	1	3
40.564	587	3	1
40.681	588	3	1
40.798	589	1	2
41.267	590	1	3
40.915	591	4	2
41.033	592	4	3
41.150	593	3	2
41.267	594	3	3
41.267	595	2	1
41.384	596	2	1
41.501	597	4	2
41.619	598	4	3
41.736	599	4	2
42.087	600	4	3
41.736	601	2	1
41.853	602	1	1
41.970	603	2	1
42.087	604	1	1
42.205	605	3	2
42.556	606	3	3
42.205	607	4	1
42.673	608	3	1
42.790	609	3	1
43.025	610	3	1
43.259	611	4	2
43.376	612	4	3
43.376	613	3	2
43.494	614	3	3
43.494	615	2	2
43.611	616	2	3
43.611	617	1	2
43.728	618	1	3
43.728	619	3	2
43.845	620	3	3
43.845	621	4	2
43.962	622	4	3
43.962	623	3	2
44.080	624	3	3
44.080	625	1	1
44.197	626	1	2
44.431	627	1	3
44.314	628	4	2
44.431	629	4	3
44.431	630	2	2
44.783	631	2	3
44.548	632	4	1
44.783	633	1	1
44.783	634	3	1
44.900	635	1	1
44.900	636	3	1
45.017	637	4	2
45.251	638	4	3
45.017	639	2	2
45.251	640	2	3
45.251	641	1	1
45.251	642	3	1
45.369	643	4	2
45.720	644	4	3
45.369	645	2	2
45.603	646	2	3
45.486	647	3	1
45.720	648	2	1
45.955	649	3	1
46.072	650	3	1
46.189	651	1	2
46.423	652	1	3
46.189	653	2	2
46.423	654	2	3
46.423	655	3	1
46.540	656	3	1
46.658	657	2	1
46.775	658	1	1
46.892	659	3	1
47.009	660	2	1
47.126	661	4	2
47.244	662	4	3
47.244	663	3	2
47.361	664	3	3
47.361	665	1	1
47.478	666	2	2
47.830	667	2	3
47.830	668	4	2
48.181	669	4	3
47.830	670	1	2
48.181	671	1	3
48.064	672	3	1
48.181	673	2	2
48.298	674	2	3
48.298	675	4	2
48.415	676	4	3
48.298	677	3	1
48.415	678	2	2
48.650	679	2	3
48.533	680	4	1
48.650	681	3	2
48.767	682	3	3
48.767	683	1	1
48.884	684	3	2
49.001	685	3	3
49.001	686	1	2
49.236	687	1	3
49.236	688	3	2
49.587	689	3	3
49.236	690	2	2
49.587	691	2	3
49.705	692	4	2
50.056	693	4	3
49.705	694	3	1
49.705	695	1	1
49.939	696	2	1
50.056	697	2	1
50.173	698	4	2
50.525	699	4	3
50.173	700	1	1
50.290	701	3	1
50.408	702	2	1
50.525	703	2	1
50.642	704	4	1
50.642	705	3	1
50.759	706	4	1
50.759	707	1	1
50.876	708	2	1
50.876	709	3	1
50.994	710	1	2
51.345	711	1	3
50.994	712	2	1
51.111	713	4	1
51.111	714	3	1
51.228	715	2	1
51.345	716	2	2
51.580	717	2	3
51.462	718	1	2
51.580	719	1	3
51.580	720	4	1
51.580	721	3	1
51.697	722	3	1
51.697	723	2	1
51.814	724	4	1
51.931	725	4	1
52.048	726	2	2
52.165	727	2	3
52.048	728	1	2
52.165	729	1	3
52.165	730	3	1
52.283	731	1	2
52.517	732	1	3
52.283	733	2	2
52.400	734	2	3
52.517	735	4	1
52.517	736	2	1
52.595	737	3	1
52.673	738	4	1
52.751	739	3	2
52.986	740	3	3
52.986	741	1	1
52.986	742	2	1
53.064	743	4	1
53.142	744	1	1
53.220	745	4	2
53.455	746	4	3
53.455	747	2	2
53.806	748	2	3
53.455	749	3	2
53.572	750	3	3
53.689	751	3	1
53.806	752	3	1
53.923	753	1	1
53.923	754	2	1
54.040	755	4	1
54.040	756	1	1
54.158	757	2	1
54.158	758	3	1
54.275	759	4	2
54.509	760	4	3
54.275	761	3	1
54.392	762	2	1
54.392	763	1	1
54.509	764	1	1
54.626	765	4	2
54.978	766	4	3
54.626	767	3	1
54.861	768	2	2
55.212	769	2	3
54.861	770	3	2
54.978	771	3	3
55.095	772	4	2
55.330	773	4	3
55.095	774	3	2
55.330	775	3	3
55.330	776	1	1
55.330	777	2	1
55.447	778	4	2
55.681	779	4	3
55.447	780	1	2
55.798	781	1	3
55.681	782	2	1
55.798	783	3	2
56.033	784	3	3
55.798	785	4	2
55.915	786	4	3
55.915	787	1	2
56.033	788	1	3
55.915	789	2	2
56.033	790	2	3
56.033	791	4	1
56.150	792	3	2
56.267	793	3	3
56.150	794	2	2
56.267	795	2	3
56.267	796	4	1
56.267	797	1	1
56.384	798	4	2
56.501	799	4	3
56.384	800	3	2
56.501	801	3	3
56.501	802	1	2
56.619	803	1	3
56.501	804	2	2
56.619	805	2	3
56.619	806	3	1
56.736	807	4	2
57.087	808	4	3
56.736	809	1	2
56.853	810	1	3
56.853	811	3	1
56.970	812	1	1
57.087	813	1	1
57.205	814	3	2
57.322	815	3	3
57.205	816	4	2
57.556	817	4	3
57.322	818	2	1
57.439	819	3	1
57.556	820	1	2
57.673	821	1	3
57.673	822	4	2
57.790	823	4	3
57.673	824	3	2
57.908	825	3	3
57.790	826	2	2
57.908	827	2	3
57.908	828	1	1
58.025	829	4	2
58.142	830	4	3
58.025	831	3	2
58.376	832	3	3
58.142	833	2	1
58.142	834	1	1
58.259	835	4	1
58.376	836	4	2
58.494	837	4	3
58.611	838	2	2
58.845	839	2	3
58.611	840	3	2
58.962	841	3	3
58.728	842	1	2
58.845	843	1	3
58.845	844	4	2
58.962	845	4	3
58.962	846	2	2
59.080	847	2	3
59.080	848	4	1
59.080	849	1	1
59.197	850	1	1
59.197	851	2	1
59.314	852	4	1
59.314	853	3	1
59.431	854	4	1
59.431	855	1	2
59.783	856	1	3
59.548	857	3	1
59.548	858	2	1
59.783	859	3	1
59.900	860	3	1
60.017	861	4	2
60.369	862	4	3
60.017	863	1	2
60.369	864	1	3
60.251	865	3	1
60.369	866	2	2
60.486	867	2	3
60.486	868	4	2
60.720	869	4	3
60.486	870	3	2
60.603	871	3	3
60.603	872	1	1
60.720	873	3	2
60.955	874	3	3
60.955	875	4	1
60.955	876	2	2
61.423	877	2	3
61.072	878	4	1
61.189	879	4	2
61.423	880	4	3
61.423	881	1	2
61.892	882	1	3
61.423	883	3	1
61.540	884	3	1
61.658	885	3	2
61.892	886	3	3
61.892	887	4	2
62.244	888	4	3
61.892	889	2	1
62.009	890	2	1
62.126	891	2	2
62.361	892	2	3
62.244	893	1	2
62.361	894	1	3
62.361	895	3	2
62.712	896	3	3
62.361	897	4	1
62.478	898	4	2
62.712	899	4	3
62.595	900	2	2
62.712	901	2	3
62.830	902	4	2
63.181	903	4	3
62.830	904	3	2
63.064	905	3	3
62.830	906	2	1
63.064	907	1	2
63.298	908	1	3
63.064	909	2	1
63.181	910	3	2
63.298	911	3	3
63.298	912	4	1
63.298	913	2	1
63.415	914	1	2
63.533	915	1	3
63.533	916	4	1
63.533	917	3	1
63.650	918	1	2
63.767	919	1	3
63.767	920	3	1
63.767	921	2	1
63.884	922	3	1
64.001	923	1	1
64.060	924	4	1
64.119	925	2	1
64.177	926	4	1
64.236	927	3	1
64.236	928	1	1
64.353	929	3	1
64.353	930	1	1
64.470	931	4	1
64.470	932	2	1
64.587	933	4	1
64.587	934	2	1
64.705	935	1	2
65.056	936	1	3
64.705	937	4	1
64.705	938	3	1
65.173	939	4	1
65.173	940	1	2
65.525	941	1	3
65.290	942	3	1
65.408	943	2	1
65.525	944	3	1
65.642	945	2	1
65.642	946	1	2
65.994	947	1	3
65.759	948	4	1
65.876	949	4	1
66.111	950	4	1
66.111	951	1	2
66.462	952	1	3
66.228	953	3	1
66.345	954	2	1
66.462	955	3	1
66.580	956	1	2
66.931	957	1	3
66.580	958	2	1
66.697	959	4	1
66.814	960	4	1
67.048	961	1	2
67.400	962	1	3
67.048	963	4	1
67.165	964	3	1
67.283	965	2	1
67.400	966	3	1
67.517	967	1	2
67.869	968	1	3
67.517	969	2	1
67.634	970	4	1
67.751	971	4	1
67.986	972	4	1
67.986	973	1	2
68.337	974	1	3
68.103	975	3	1
68.220	976	2	1
68.337	977	3	1
68.455	978	4	2
68.806	979	4	3
68.455	980	1	1
68.923	981	4	2
69.275	982	4	3
68.923	983	1	1
69.040	984	2	1
69.158	985	3	1
69.275	986	2	1
69.392	987	4	2
69.744	988	4	3
69.392	989	3	1
69.509	990	1	1
69.626	991	1	1
69.861	992	4	2
70.212	993	4	3
69.861	994	1	1
69.978	995	2	1
70.095	996	3	1
70.212	997	2	1
70.330	998	3	2
70.681	999	3	3
70.330	1000	4	2
70.681	1001	4	3
70.447	1002	1	1
70.564	1003	1	1
70.681	1004	2	2
70.798	1005	2	3
70.798	1006	1	1
70.798	1007	4	2
71.150	1008	4	3
70.915	1009	3	2
71.033	1010	3	3
71.150	1011	2	2
71.267	1012	2	3
71.267	1013	1	1
71.267	1014	4	2
71.619	1015	4	3
71.384	1016	3	1
71.501	1017	3	2
71.619	1018	3	3
71.736	1019	4	2
72.087	1020	4	3
71.736	1021	1	2
72.087	1022	1	3
71.970	1023	2	1
72.205	1024	1	2
72.556	1025	1	3
72.205	1026	2	2
72.556	1027	2	3
72.205	1028	4	1
72.439	1029	3	2
72.556	1030	3	3
72.439	1031	4	1
72.673	1032	3	2
73.025	1033	3	3
72.673	1034	2	2
73.025	1035	2	3
72.908	1036	1	1
72.908	1037	4	2
73.025	1038	4	3
73.142	1039	4	2
73.494	1040	4	3
73.142	1041	3	2
73.494	1042	3	3
73.376	1043	1	1
73.376	1044	2	2
73.494	1045	2	3
73.611	1046	3	2
73.962	1047	3	3
73.611	1048	2	2
73.962	1049	2	3
73.845	1050	1	2
73.962	1051	1	3
73.845	1052	4	1
74.080	1053	3	2
74.431	1054	3	3
74.080	1055	4	2
74.431	1056	4	3
74.080	1057	1	1
74.314	1058	1	2
74.431	1059	1	3
74.314	1060	2	1
74.548	1061	3	2
74.900	1062	3	3
74.548	1063	2	2
74.900	1064	2	3
74.783	1065	4	2
74.900	1066	4	3
74.783	1067	1	1
75.017	1068	2	2
75.369	1069	2	3
75.017	1070	1	2
75.369	1071	1	3
75.251	1072	4	2
75.369	1073	4	3
75.251	1074	3	1
75.486	1075	2	2
75.837	1076	2	3
75.486	1077	3	2
75.837	1078	3	3
75.720	1079	4	1
75.720	1080	1	2
75.837	1081	1	3
75.955	1082	4	2
76.072	1083	4	3
75.955	1084	1	2
76.072	1085	1	3
75.955	1086	2	1
76.072	1087	3	1
76.189	1088	4	2
76.306	1089	4	3
76.189	1090	1	2
76.306	1091	1	3
76.306	1092	2	1
76.423	1093	4	2
76.540	1094	4	3
76.423	1095	1	2
76.540	1096	1	3
76.540	1097	3	1
76.658	1098	4	2
76.775	1099	4	3
76.658	1100	1	2
76.775	1101	1	3
76.775	1102	2	1
76.892	1103	4	2
77.009	1104	4	3
76.892	1105	3	2
77.009	1106	3	3
77.009	1107	1	1
77.126	1108	4	2
77.244	1109	4	3
77.126	1110	3	2
77.244	1111	3	3
77.244	1112	2	1
77.361	1113	4	2
77.478	1114	4	3
77.361	1115	3	2
77.478	1116	3	3
77.478	1117	1	1
77.537	1118	2	1
77.595	1119	4	2
77.712	1120	4	3
77.595	1121	3	2
77.712	1122	3	3
77.712	1123	2	1
77.830	1124	4	1
77.830	1125	1	1
77.947	1126	3	1
77.947	1127	1	1
78.181	1128	4	1
78.181	1129	1	1
78.298	1130	4	1
78.298	1131	2	1
78.533	1132	3	1
78.533	1133	2	1
78.650	1134	4	1
78.650	1135	3	1
78.650	1136	1	1
78.884	1137	3	1
78.884	1138	2	1
79.001	1139	4	1
79.001	1140	2	1
79.236	1141	1	2
79.353	1142	1	3
79.236	1143	4	2
79.353	1144	4	3
79.265	1145	2	2
79.587	1146	2	3
79.265	1147	3	2
79.470	1148	3	3
79.705	1149	4	2
80.056	1150	4	3
79.705	1151	3	1
79.705	1152	1	1
79.939	1153	1	2
80.056	1154	1	3
79.939	1155	3	2
80.173	1156	3	3
79.939	1157	2	2
80.056	1158	2	3
80.173	1159	4	2
80.290	1160	4	3
80.173	1161	2	2
80.290	1162	2	3
80.408	1163	1	2
80.525	1164	1	3
80.408	1165	2	2
80.525	1166	2	3
80.408	1167	3	2
80.642	1168	3	3
80.642	1169	4	2
80.876	1170	4	3
80.642	1171	1	2
80.994	1172	1	3
80.759	1173	2	1
80.876	1174	3	2
80.994	1175	3	3
80.994	1176	4	1
81.111	1177	1	2
81.228	1178	1	3
81.111	1179	3	2
81.228	1180	3	3
81.345	1181	4	2
81.462	1182	4	3
81.345	1183	3	2
81.462	1184	3	3
81.345	1185	2	2
81.580	1186	2	3
81.580	1187	4	2
81.931	1188	4	3
81.580	1189	1	2
81.814	1190	1	3
81.697	1191	3	1
81.814	1192	2	2
81.931	1193	2	3
81.931	1194	1	1
82.048	1195	4	2
82.165	1196	4	3
82.048	1197	2	2
82.165	1198	2	3
82.283	1199	1	2
82.400	1200	1	3
82.283	1201	2	2
82.400	1202	2	3
82.283	1203	3	2
82.517	1204	3	3
82.517	1205	4	1
82.517	1206	1	1
82.634	1207	4	2
82.751	1208	4	3
82.634	1209	3	2
82.751	1210	3	3
82.634	1211	2	2
82.869	1212	2	3
82.869	1213	4	2
82.986	1214	4	3
82.869	1215	3	2
82.986	1216	3	3
82.869	1217	1	1
82.986	1218	1	1
82.986	1219	2	1
83.220	1220	4	2
83.337	1221	4	3
83.220	1222	3	2
83.337	1223	3	3
83.220	1224	2	2
83.455	1225	2	3
83.455	1226	3	2
83.806	1227	3	3
83.455	1228	4	1
83.689	1229	4	2
83.923	1230	4	3
83.689	1231	1	2
83.806	1232	1	3
83.689	1233	2	2
83.806	1234	2	3
83.923	1235	1	2
84.040	1236	1	3
83.923	1237	2	2
84.040	1238	2	3
84.158	1239	4	2
84.275	1240	4	3
84.158	1241	3	2
84.275	1242	3	3
84.158	1243	1	2
84.392	1244	1	3
84.392	1245	2	2
84.744	1246	2	3
84.392	1247	3	2
84.626	1248	3	3
84.509	1249	4	1
84.626	1250	1	2
84.744	1251	1	3
84.744	1252	3	1
84.861	1253	1	2
84.978	1254	1	3
84.861	1255	2	2
84.978	1256	2	3
85.095	1257	1	2
85.212	1258	1	3
85.095	1259	4	2
85.330	1260	4	3
85.095	1261	3	2
85.212	1262	3	3
85.330	1263	3	2
85.681	1264	3	3
85.330	1265	2	2
85.564	1266	2	3
85.447	1267	1	1
85.564	1268	4	2
85.681	1269	4	3
85.681	1270	2	1
85.798	1271	4	2
85.915	1272	4	3
85.798	1273	3	2
85.915	1274	3	3
86.033	1275	1	2
86.267	1276	1	3
86.033	1277	4	2
86.150	1278	4	3
86.033	1279	2	2
86.150	1280	2	3
86.267	1281	3	1
86.267	1282	2	1
86.384	1283	4	2
86.619	1284	4	3
86.384	1285	3	2
86.501	1286	3	3
86.384	1287	1	2
86.501	1288	1	3
86.619	1289	1	2
86.736	1290	1	3
86.619	1291	2	2
86.736	1292	2	3
86.619	1293	3	1
86.736	1294	4	1
86.736	1295	3	1
86.970	1296	3	2
87.205	1297	3	3
86.970	1298	4	2
87.087	1299	4	3
86.970	1300	2	2
87.087	1301	2	3
87.205	1302	1	2
87.556	1303	1	3
87.205	1304	2	1
87.205	1305	4	1
87.439	1306	4	2
87.556	1307	4	3
87.439	1308	2	2
87.673	1309	2	3
87.439	1310	3	2
87.556	1311	3	3
87.673	1312	1	2
87.790	1313	1	3
87.673	1314	3	2
87.790	1315	3	3
87.908	1316	4	2
88.025	1317	4	3
87.908	1318	3	2
88.025	1319	3	3
87.908	1320	2	2
88.142	1321	2	3
88.142	1322	1	2
88.376	1323	1	3
88.142	1324	4	2
88.494	1325	4	3
88.259	1326	3	1
88.376	1327	2	2
88.494	1328	2	3
88.494	1329	1	1
88.611	1330	4	2
88.728	1331	4	3
88.611	1332	2	2
88.728	1333	2	3
88.845	1334	1	2
88.962	1335	1	3
88.845	1336	2	2
88.962	1337	2	3
88.845	1338	3	2
89.080	1339	3	3
89.080	1340	1	2
89.431	1341	1	3
89.080	1342	4	2
89.314	1343	4	3
89.197	1344	2	1
89.314	1345	3	2
89.431	1346	3	3
89.431	1347	4	1
89.548	1348	1	2
89.665	1349	1	3
89.548	1350	3	2
89.665	1351	3	3
89.783	1352	4	2
89.900	1353	4	3
89.783	1354	3	2
89.900	1355	3	3
89.783	1356	2	2
90.017	1357	2	3
90.017	1358	1	1
90.017	1359	4	1
90.134	1360	1	2
90.251	1361	1	3
90.134	1362	2	2
90.251	1363	2	3
90.134	1364	3	2
90.369	1365	3	3
90.369	1366	1	2
90.486	1367	1	3
90.369	1368	2	2
90.486	1369	2	3
90.369	1370	4	1
90.486	1371	4	1
90.486	1372	3	1
90.720	1373	1	2
90.837	1374	1	3
90.720	1375	2	2
90.837	1376	2	3
90.720	1377	3	2
90.955	1378	3	3
90.955	1379	2	2
91.306	1380	2	3
90.955	1381	1	1
91.189	1382	1	2
91.423	1383	1	3
91.189	1384	4	2
91.306	1385	4	3
91.189	1386	3	2
91.306	1387	3	3
91.423	1388	4	2
91.540	1389	4	3
91.423	1390	3	2
91.540	1391	3	3
91.658	1392	1	2
91.775	1393	1	3
91.658	1394	2	2
91.775	1395	2	3
91.658	1396	4	2
91.892	1397	4	3
91.892	1398	2	2
92.009	1399	2	3
91.892	1400	3	2
92.009	1401	3	3
92.126	1402	3	2
92.361	1403	3	3
92.126	1404	1	2
92.244	1405	1	3
92.126	1406	4	2
92.244	1407	4	3
92.361	1408	1	2
92.712	1409	1	3
92.361	1410	4	2
92.595	1411	4	3
92.478	1412	2	1
92.595	1413	3	2
92.712	1414	3	3
92.712	1415	4	1
92.830	1416	1	1
92.830	1417	2	2
93.181	1418	2	3
92.947	1419	3	2
93.181	1420	3	3
93.064	1421	4	1
93.181	1422	4	1
93.298	1423	2	1
93.298	1424	1	1
93.415	1425	3	2
93.767	1426	3	3
93.533	1427	2	2
93.767	1428	2	3
93.767	1429	1	2
94.236	1430	1	3
93.767	1431	4	2
93.884	1432	4	3
94.001	1433	4	1
94.001	1434	3	1
94.236	1435	4	1
94.236	1436	3	1
94.236	1437	2	1
94.353	1438	1	1
94.470	1439	4	1
94.529	1440	2	1
94.587	1441	4	1
94.646	1442	3	1
94.705	1443	1	2
95.056	1444	1	3
94.705	1445	2	1
94.939	1446	4	2
95.056	1447	4	3
94.939	1448	2	2
95.173	1449	2	3
94.939	1450	3	2
95.056	1451	3	3
95.173	1452	1	2
95.290	1453	1	3
95.173	1454	3	2
95.290	1455	3	3
95.408	1456	4	2
95.525	1457	4	3
95.408	1458	3	2
95.525	1459	3	3
95.408	1460	2	2
95.642	1461	2	3
95.642	1462	1	2
95.876	1463	1	3
95.642	1464	4	2
95.994	1465	4	3
95.759	1466	3	1
95.876	1467	2	2
95.994	1468	2	3
95.994	1469	1	1
96.111	1470	4	2
96.228	1471	4	3
96.111	1472	2	2
96.228	1473	2	3
96.345	1474	1	2
96.462	1475	1	3
96.345	1476	2	2
96.462	1477	2	3
96.345	1478	3	2
96.580	1479	3	3
96.580	1480	1	2
96.931	1481	1	3
96.580	1482	4	2
96.814	1483	4	3
96.697	1484	2	1
96.814	1485	3	2
96.931	1486	3	3
96.931	1487	4	1
97.048	1488	1	2
97.165	1489	1	3
97.048	1490	3	2
97.165	1491	3	3
97.283	1492	4	2
97.400	1493	4	3
97.283	1494	3	2
97.400	1495	3	3
97.283	1496	2	2
97.517	1497	2	3
97.517	1498	1	1
97.517	1499	4	1
97.634	1500	1	2
97.751	1501	1	3
97.634	1502	2	2
97.751	1503	2	3
97.634	1504	3	2
97.869	1505	3	3
97.869	1506	1	2
97.986	1507	1	3
97.869	1508	2	2
97.986	1509	2	3
97.869	1510	4	1
97.986	1511	4	1
97.986	1512	3	1
98.220	1513	1	2
98.337	1514	1	3
98.220	1515	2	2
98.337	1516	2	3
98.220	1517	3	2
98.455	1518	3	3
98.455	1519	2	2
98.806	1520	2	3
98.455	1521	1	1
98.689	1522	1	2
98.923	1523	1	3
98.689	1524	4	2
98.806	1525	4	3
98.689	1526	3	2
98.806	1527	3	3
98.923	1528	4	2
99.040	1529	4	3
98.923	1530	3	2
99.040	1531	3	3
99.158	1532	1	2
99.275	1533	1	3
99.158	1534	2	2
99.275	1535	2	3
99.158	1536	4	2
99.392	1537	4	3
99.392	1538	3	2
99.744	1539	3	3
99.392	1540	2	2
99.626	1541	2	3
99.509	1542	1	1
99.626	1543	4	2
99.744	1544	4	3
99.744	1545	2	1
99.861	1546	4	2
99.978	1547	4	3
99.861	1548	3	2
99.978	1549	3	3
100.095	1550	4	2
100.212	1551	4	3
100.095	1552	1	2
100.330	1553	1	3
100.095	1554	2	2
100.212	1555	2	3
100.330	1556	2	2
100.681	1557	2	3
100.330	1558	3	2
100.564	1559	3	3
100.447	1560	4	1
100.564	1561	1	2
100.681	1562	1	3
100.681	1563	3	1
100.798	1564	1	2
100.915	1565	1	3
100.798	1566	2	2
100.915	1567	2	3
101.033	1568	4	2
101.267	1569	4	3
101.033	1570	1	2
101.150	1571	1	3
101.033	1572	3	2
101.150	1573	3	3
101.267	1574	2	1
101.267	1575	3	1
101.384	1576	1	2
101.619	1577	1	3
101.384	1578	2	2
101.501	1579	2	3
101.384	1580	4	2
101.501	1581	4	3
101.619	1582	4	2
101.736	1583	4	3
101.619	1584	3	2
101.736	1585	3	3
101.619	1586	2	1
101.736	1587	1	1
101.736	1588	2	1
101.970	1589	2	2
102.205	1590	2	3
101.970	1591	1	2
102.087	1592	1	3
101.970	1593	3	2
102.087	1594	3	3
102.205	1595	4	2
102.556	1596	4	3
102.205	1597	3	1
102.205	1598	1	1
102.439	1599	1	2
102.556	1600	1	3
102.439	1601	3	2
102.673	1602	3	3
102.439	1603	2	2
102.556	1604	2	3
102.673	1605	4	2
102.790	1606	4	3
102.673	1607	2	2
102.790	1608	2	3
102.908	1609	1	2
103.025	1610	1	3
102.908	1611	2	2
103.025	1612	2	3
102.908	1613	3	2
103.142	1614	3	3
103.142	1615	4	2
103.376	1616	4	3
103.142	1617	1	2
103.494	1618	1	3
103.259	1619	2	1
103.376	1620	3	2
103.494	1621	3	3
103.494	1622	4	1
103.611	1623	1	2
103.728	1624	1	3
103.611	1625	3	2
103.728	1626	3	3
103.845	1627	4	2
103.962	1628	4	3
103.845	1629	3	2
103.962	1630	3	3
103.845	1631	2	2
104.080	1632	2	3
104.080	1633	4	2
104.431	1634	4	3
104.080	1635	1	2
104.314	1636	1	3
104.197	1637	3	1
104.314	1638	2	2
104.431	1639	2	3
104.431	1640	1	1
104.548	1641	4	2
104.665	1642	4	3
104.548	1643	2	2
104.665	1644	2	3
104.783	1645	1	2
104.900	1646	1	3
104.783	1647	2	2
104.900	1648	2	3
104.783	1649	3	2
105.017	1650	3	3
105.017	1651	4	1
105.017	1652	1	1
105.134	1653	4	2
105.251	1654	4	3
105.134	1655	3	2
105.251	1656	3	3
105.134	1657	2	2
105.369	1658	2	3
105.369	1659	4	2
105.486	1660	4	3
105.369	1661	3	2
105.486	1662	3	3
105.369	1663	1	1
105.486	1664	1	1
105.486	1665	2	1
105.720	1666	4	2
105.837	1667	4	3
105.720	1668	3	2
105.837	1669	3	3
105.720	1670	2	2
105.955	1671	2	3
105.955	1672	3	2
106.306	1673	3	3
105.955	1674	4	1
106.189	1675	4	2
106.423	1676	4	3
106.189	1677	1	2
106.306	1678	1	3
106.189	1679	2	2
106.306	1680	2	3
106.423	1681	1	2
106.540	1682	1	3
106.423	1683	2	2
106.540	1684	2	3
106.658	1685	4	2
106.775	1686	4	3
106.658	1687	3	2
106.775	1688	3	3
106.658	1689	1	2
106.892	1690	1	3
106.892	1691	3	2
107.009	1692	3	3
106.892	1693	2	2
107.009	1694	2	3
107.126	1695	2	2
107.361	1696	2	3
107.126	1697	4	2
107.244	1698	4	3
107.126	1699	1	2
107.244	1700	1	3
107.361	1701	4	2
107.712	1702	4	3
107.361	1703	1	2
107.595	1704	1	3
107.478	1705	3	1
107.595	1706	2	2
107.712	1707	2	3
107.712	1708	1	1
107.830	1709	4	1
107.830	1710	3	2
108.181	1711	3	3
107.947	1712	2	2
108.181	1713	2	3
108.064	1714	1	1
108.181	1715	1	1
108.298	1716	3	1
108.298	1717	4	1
108.415	1718	2	2
108.767	1719	2	3
108.533	1720	3	2
108.767	1721	3	3
108.767	1722	4	2
109.236	1723	4	3
108.767	1724	1	2
108.884	1725	1	3
109.001	1726	1	1
109.001	1727	2	1
109.236	1728	2	2
109.470	1729	2	3
109.236	1730	3	2
109.587	1731	3	3
109.236	1732	1	1
109.353	1733	4	1
109.470	1734	1	1
109.587	1735	2	1
109.705	1736	4	1
109.705	1737	3	1